"Sensitivity = -41.02059991327962 dB, AGain = 18 dB"
Freq(Hz) SPL(dB) Phase(degrees)
20.0,-23.064700475187855
20.2,-23.003876689224377
20.402,-22.94305290326089
20.60602,-22.8822291172974
20.8120802,-22.82140533133391
21.020201002,-22.760581545370428
21.230403012020002,-22.699757759406943
21.442707042140203,-22.63893397344345
21.657134112561604,-22.578110187479965
21.87370545368722,-22.517286401516476
22.092442508224092,-22.45646261555299
22.313366933306334,-22.3956388295895
22.536500602639396,-22.334815043626016
22.76186560866579,-22.27399125766253
22.98948426475245,-22.21316747169904
23.219379107399973,-22.152343685735556
23.451572898473973,-22.091212045458814
23.686088627458712,-22.025285079968587
23.9229495137333,-21.959358114478356
24.162179008870634,-21.89343114898812
24.40380079895934,-21.82750418349789
24.647838806948936,-21.76157721800766
24.894317195018427,-21.695650252517428
25.14326036696861,-21.629723287027197
25.3946929706383,-21.563796321536966
25.648639900344683,-21.497869356046735
25.90512629934813,-21.42960643986034
26.16417756234161,-21.358830406881594
26.425819337965027,-21.288054373902852
26.690077531344677,-21.217278340924103
26.956978306658126,-21.14650230794536
27.22654808972471,-21.07572627496662
27.498813570621955,-21.00495024198787
27.773801706328175,-20.934174209009125
28.051539723391457,-20.863398176030383
28.332055120625373,-20.789235066750766
28.61537567183163,-20.713864274060224
28.901529428549946,-20.638493481369682
29.190544722835444,-20.563122688679144
29.4824501700638,-20.487751895988605
29.777274671764438,-20.412381103298063
30.075047418482082,-20.337010310607525
30.375797892666903,-20.261639517916983
30.67955587159357,-20.18326120882831
30.986351430309508,-20.10355015824617
31.296214944612604,-20.023839107664024
31.60917709405873,-19.944128057081883
31.925268864999317,-19.86441700649975
32.244521553649314,-19.784705955917605
32.566966769185804,-19.704994905335464
32.89263643687766,-19.624282293111076
33.221562801246435,-19.540485657183133
33.5537784292589,-19.456689021255187
33.88931621355149,-19.37289238532724
34.228209375687,-19.2890957493993
34.57049146944387,-19.20529911347136
34.91619638413831,-19.121502477543412
35.26535834797969,-19.036512865403374
35.61801193145949,-18.948885452029987
35.974192050774086,-18.861258038656604
36.33393397128183,-18.773630625283218
36.697273310994646,-18.68600321190984
37.06424604410459,-18.598375798536452
37.43488850454564,-18.51074838516307
37.8092373895911,-18.42016961884341
38.18732976348701,-18.328966329184283
38.569203061121875,-18.23776303952515
38.95489509173309,-18.14655974986602
39.34444404265042,-18.05535646020689
39.73788848307693,-17.964153170547757
40.1352673679077,-17.870516880506504
40.53662004158678,-17.775992663231833
40.94198624200265,-17.681468445957158
41.35140610442268,-17.586944228682484
41.764920165466904,-17.492420011407816
42.18256936712157,-17.397895794133145
42.60439506079279,-17.300341612215995
43.030439011400716,-17.202751415921174
43.460743401514726,-17.105161219626346
43.895350835529875,-17.007571023331522
44.33430434388517,-16.909980827036698
44.77764738732402,-16.810831767664233
45.225423861197264,-16.710430492544653
45.677678099809235,-16.61002921742507
46.134454880807326,-16.509627942305492
46.5957994296154,-16.40922666718591
47.06175742391155,-16.307803881175996
47.532374998150665,-16.20484633063268
48.00769874813217,-16.10188878008936
48.487775735613496,-15.998931229546038
48.972653492969634,-15.895973679002715
49.46238002789933,-15.791873978603736
49.95700382817832,-15.686614811192136
50.456573866460104,-15.581355643780533
50.96113960512471,-15.476096476368927
51.470751001175955,-15.370837308957322
51.985458511187716,-15.263897400086567
52.505313096299595,-15.15659108206157
53.03036622726259,-15.049284764036575
53.56066988953522,-14.94197844601158
54.09627658843057,-14.834038061053167
54.63723935431488,-14.724938819663095
55.18361174785803,-14.615839578273018
55.73544786533661,-14.506740336882944
56.292802343989976,-14.397523449922744
56.85573036742988,-14.286885227541584
57.424287671104175,-14.17624700516042
57.998530547815214,-14.065608782779258
58.57851585329337,-13.954970560398102
59.1643010118263,-13.843080559809273
59.755944021944565,-13.731156968955823
60.353503462164014,-13.619233378102372
60.95703849678566,-13.507276534027113
61.56660888175352,-13.394320813293529
62.18227497057105,-13.281365092559945
62.804097720276765,-13.168409371826364
63.43213869747953,-13.055267126446621
64.06646008445432,-12.941532097342186
64.70712468529887,-12.827797068237754
65.35419593215185,-12.71406203913332
66.00773789147337,-12.600019047758705
66.6678152703881,-12.485757072464143
67.33449342309198,-12.371495097169582
68.00783835732291,-12.25721722754681
68.68791674089614,-12.142680167567809
69.3747959083051,-12.028143107588804
70.06854386738816,-11.913606047609798
70.76922930606204,-11.799053524144338
71.47692159912266,-11.684492699849145
72.19169081511389,-11.569931875553944
72.91360772326503,-11.45545170737573
73.64274380049768,-11.341117858399445
74.37917123850266,-11.22678400942316
75.1229629508877,-11.112528706617557
75.87419258039658,-10.998671953114808
76.63293450620054,-10.884815199612058
77.39926385126255,-10.771010836691643
78.17325648977517,-10.657880641418995
78.95498905467292,-10.544750446146342
79.74453894521965,-10.431690386454001
80.54198433467184,-10.319535517663727
81.34740417801855,-10.207380648873448
82.16087821979873,-10.095419911335538
82.98248700199672,-9.984488406462924
83.81231187201668,-9.873556901590305
84.65043499073684,-9.763107083584252
85.4969393406442,-9.653646213711248
86.35190873405065,-9.54418534383824
87.21542782139116,-9.43571002775918
88.08758209960507,-9.32796626283805
88.96845792060113,-9.220222497916916
89.85814249980714,-9.114233080314648
90.75672392480521,-9.008452055136079
91.66429116405327,-8.903296440496204
92.5809340756938,-8.79972292138725
93.50674341645075,-8.69614940227829
94.44181085061525,-8.594387182322782
95.38622895912141,-8.49326503456072
96.34009124871262,-8.392836144889772
97.30349216119976,-8.294408300818924
98.27652708281175,-8.195980456748078
99.25929235363988,-8.10000592996507
100.25188527717629,-8.004514357804142
101.25440412994804,-7.9105183966652906
102.26694817124752,-7.818204069993537
103.28961765295999,-7.730130950174782
104.3225138294896,-7.6642748623248105
105.3657389677845,-7.5984187744748395
106.41939635746235,-7.535626283474057
107.48359032103697,-7.473167417399964
108.55842622424734,-7.411483949457561
109.64401048648982,-7.350144092395002
110.74045059135472,-7.290603426396617
111.84785509726827,-7.232648198056552
112.96633364824095,-7.175853888838408
114.09599698472336,-7.120691164607848
115.23695695457059,-7.066634994154356
116.3893265241163,-7.014693625316532
117.55321978935747,-6.964293335634569
118.72875198725104,-6.917273178994314
119.91603950712356,-6.8711893513762154
121.11519990219479,-6.827068022027511
122.32635190121674,-6.783797588361144
123.5496154202289,-6.7419666843476715
124.7851115744312,-6.700474530884989
126.03296269017551,-6.659384594250719
127.29329231707726,-6.6224682392848315
128.56622524024803,-6.5885911766671565
129.85188749265052,-6.554422922285863
131.15040636757703,-6.520149441077849
132.46191043125282,-6.488794095078868
133.78652953556534,-6.45914115919044
135.12439483092098,-6.43811112725208
136.4756387792302,-6.41836845952392
137.8403951670225,-6.400580645141962
139.21879911869274,-6.385726054232432
140.61098710987966,-6.372257606388191
142.01709698097847,-6.362763114990491
143.43726795078825,-6.354608900575135
144.87164063029613,-6.349108564374679
146.3203570365991,-6.345196215576715
147.7835606069651,-6.342369053487948
149.26139621303474,-6.34362404244835
150.7540101751651,-6.345642046579798
152.26155027691675,-6.348411203350438
153.7841657796859,-6.353437256580698
155.32200743748277,-6.357700636888218
156.8752275118576,-6.36068760722062
158.44397978697617,-6.3685276684588725
160.02841958484595,-6.377488322272584
161.62870378069442,-6.38728228423793
163.24499081850138,-6.398117894883448
164.8774407266864,-6.412377645574994
166.52621513395326,-6.430367514267604
168.1914772852928,-6.452715968289817
169.87339205814573,-6.475676832726286
171.57212597872717,-6.499776764797391
173.28784723851444,-6.52601249892338
175.0207257108996,-6.553798165946752
176.7709329680086,-6.582136349450635
178.53864229768868,-6.611061676909381
180.32402872066558,-6.640888922493533
182.12726900787223,-6.667186153390717
183.94854169795096,-6.694028363210156
185.78802711493046,-6.719976135855687
187.64590738607976,-6.7434443418485985
189.52236645994054,-6.76967107492199
191.41759012453994,-6.797663906875085
193.33176602578536,-6.827141350389665
195.2650836860432,-6.855182655974225
197.21773452290364,-6.879014968356898
199.18991186813267,-6.899998983453733
201.18181098681399,-6.927425044240858
203.19362909668212,-6.96080190487811
205.22556538764894,-6.994676388866792
207.27782104152544,-7.0243823190485255
209.3505992519407,-7.051327205204927
211.4441052444601,-7.081994609944013
213.5585462969047,-7.118550671029656
215.69413175987376,-7.15057793978089
217.8510730774725,-7.180342218562857
220.02958380824722,-7.2113952963141745
222.2298796463297,-7.237280186700101
224.45217844279298,-7.267526791277515
226.69670022722093,-7.297725029935214
228.96366722949315,-7.3217857905224015
231.2533039017881,-7.329932969044133
233.56583694080598,-7.335620595763423
235.90149531021405,-7.349123446685095
238.26051026331618,-7.366754002371771
240.64311536594934,-7.377377939933714
243.04954651960884,-7.385401043665656
245.48004198480493,-7.396145691135152
247.93484240465298,-7.405814063765168
250.4141908286995,-7.412922085383151
252.9183327369865,-7.427422730496524
255.4475160643564,-7.446072432272296
258.001991225,-7.447392391727832
260.58201113725,-7.4386559150212515
263.1878312486225,-7.41537074542714
265.8197095611087,-7.386079790057995
268.4779066567198,-7.345487034064406
271.16268572328704,-7.292896643820724
273.8743125805199,-7.236610159061019
276.61305570632516,-7.175896552496544
279.3791862633884,-7.105355537714317
282.1729781260223,-7.02699852724389
284.99470790728253,-6.934528631261797
287.84465498635535,-6.829913537595988
290.7231015362189,-6.725776360253846
293.6303325515811,-6.628700645202443
296.5666358770969,-6.521635221531983
299.5323022358679,-6.426335168474621
302.5276252582266,-6.32009723461642
305.55290151080885,-6.2123412832602884
308.60843052591696,-6.100546390899946
311.69451483117615,-5.986502807021162
314.8114599794879,-5.8724181868196625
317.9595745792828,-5.748072401505527
321.1391703250756,-5.620231860729246
324.35056202832635,-5.504155517968584
327.5940676486096,-5.385913689525281
330.8700083250957,-5.273409637197673
334.17870840834667,-5.141493370557332
337.52049549243014,-5.013613485393329
340.89570044735444,-4.894701591080733
344.304657451828,-4.775088803434932
347.7477040263463,-4.659494459242601
351.22518106660976,-4.551918426014019
354.73743287727586,-4.465628433019284
358.28480720604864,-4.389702756698112
361.8676552781091,-4.318954772307686
365.4863318308902,-4.263220004419432
369.1411951491991,-4.19660597941645
372.8326071006911,-4.125579779612603
376.560933171698,-4.059711968572147
380.326542503415,-3.991290406678625
384.12980792844917,-3.929348188054513
387.9711060077337,-3.8408849309704216
391.850817067811,-3.7485345735052507
395.76932523848916,-3.6565480313247996
399.72701849087406,-3.57990013866299
403.7242886757828,-3.4961664748951033
407.76153156254065,-3.401663470649448
411.83914687816605,-3.29520297284976
415.95753834694773,-3.1828815749554495
420.1171137304172,-3.0661279106161707
424.3182848677214,-2.9369880385705223
428.5614677163986,-2.836164814047085
432.84708239356263,-2.723098945879114
437.17555321749825,-2.6257893756313457
441.5473087496732,-2.509665016270638
445.96278183717,-2.3908310109583355
450.4224096555417,-2.2816544752415173
454.92663375209713,-2.2106030806726267
459.4759000896181,-2.1589819563476937
464.0706590905143,-2.1360980912610663
468.71136568141947,-2.1233388529759147
473.39847933823364,-2.1176041095545886
478.13246413161596,-2.1225824653140655
482.91378877293215,-2.1354580663233356
487.74292666066145,-2.1770944232359914
492.62035592726806,-2.2371797948991285
497.54655948654073,-2.3196612242936974
502.5220250814061,-2.4479639727725067
507.5472453322202,-2.5831894313308625
512.6227177855424,-2.73354216297546
517.7489449633978,-2.899157414374413
522.9264344130318,-3.058512444602951
528.1556987571621,-3.2144891691723574
533.4372557447338,-3.3548059589002532
538.771628302181,-3.4897302065021205
544.1593445852029,-3.613037007050522
549.600938031055,-3.7103730864448092
555.0969474113655,-3.795857867398598
560.6479168854792,-3.8676117086208253
566.2543960543339,-3.905284415217082
571.9169400148772,-3.893512309716946
577.636109415026,-3.8810424285938865
583.4124705091763,-3.8555937891426177
589.246595214268,-3.823191351667253
595.1390611664107,-3.754093425969528
601.0904517780748,-3.663659419183581
607.1013562958556,-3.5654125567035893
613.1723698588141,-3.5003668446952627
619.3040935574023,-3.4481074253674757
625.4971344929763,-3.3762992176755233
631.7521058379061,-3.284943731811051
638.0696268962852,-3.1822565023514064
644.450323165248,-3.084334486401583
650.8948263969005,-3.001974233712706
657.4037746608695,-2.9262938311635143
663.9778124074783,-2.853591900245469
670.6175905315531,-2.768470368997924
677.3237664368686,-2.661272286048627
684.0970041012373,-2.554065324511843
690.9379741422497,-2.4577130747140825
697.8473538836722,-2.379830661215361
704.825827422509,-2.3099943313151483
711.874085696734,-2.2379960163281214
718.9928265537013,-2.177587117856259
726.1827548192383,-2.1048824005606988
733.4445823674307,-2.026655817758504
740.779028191105,-1.9793709495933514
748.186818473016,-1.9281434360182408
755.6686866577462,-1.8732186257693466
763.2253735243237,-1.837591734490838
770.8576272595669,-1.8242488237979104
778.5662035321626,-1.7802287148733322
786.3518655674842,-1.698447630250735
794.215384223159,-1.6070902561484037
802.1575380653907,-1.510486402692198
810.1791134460445,-1.4274831365663556
818.280904580505,-1.3189914799238671
826.46371362631,-1.1906183231969298
834.7283507625731,-1.0229867701729451
843.0756342701989,-0.8638239602544566
851.5063906129009,-0.7067474426674697
860.0214545190299,-0.5505869433970763
868.6216690642202,-0.39185617582191007
877.3078857548625,-0.2505337452521156
886.0809646124111,-0.13095012914942442
894.9417742585352,-0.04686254068880706
903.8911920011207,-0.0063380353748272444
912.9301039211318,0.020036935142294196
922.0594049603432,0.012507337500431289
931.2799990099466,-0.018539236401871353
940.592799000046,-0.05767591510178002
949.9987269900465,-0.1159308869560518
959.498714259947,-0.1813928490275027
969.0937014025465,-0.22738331568959955
978.784638416572,-0.21811918838254352
988.5724848007377,-0.1576262099494951
998.4582096487451,-0.029853710385725363
1008.4427917452325,0.16266613427276416
1018.5272196626848,0.3964816346246246
1028.7124918593117,0.6169718338126258
1038.999616777905,0.8152967635699517
1049.3896129456841,1.0109358922363096
1059.8835090751409,1.1851509416424901
1070.4823441658923,1.342533129972984
1081.1871676075511,1.4423472587549673
1091.9990392836266,1.4878680226029135
1102.919029676463,1.4873117359220984
1113.9482199732277,1.4474008106648748
1125.08770217296,1.3914872314067441
1136.3385791946896,1.3097726937059888
1147.7019649866365,1.2200310265124923
1159.178984636503,1.1671184203481326
1170.770774482868,1.1261985939760797
1182.4784822276968,1.061327541015177
1194.3032670499738,0.9683983526767739
1206.2462997204736,0.8824996491228132
1218.3087627176783,0.8059648334273454
1230.491850344855,0.7226183737405042
1242.7967688483036,0.629325835892364
1255.2247365367866,0.532429666672036
1267.7769839021546,0.42637299069316226
1280.454753741176,0.31813358405424336
1293.2593012785878,0.20668928360296046
1306.1918942913737,0.12190272079754465
1319.2538132342875,0.09960668660529472
1332.4463513666303,0.07061773340387648
1345.7708148802967,0.03718220270816544
1359.2285230290997,0.04026288635462886
1372.8208082593908,0.08101632158380723
1386.5490163419847,0.12037875149914234
1400.4145065054047,0.16703367783540946
1414.4186515704587,0.22564807711154905
1428.5628380861633,0.271511692527734
1442.848466467025,0.3355087630416431
1457.2769511316953,0.41826829897613566
1471.8497206430122,0.538023838507222
1486.5682178494424,0.6548060339920638
1501.4339000279367,0.7603686133208052
1516.448239028216,0.8559815251388303
1531.6127214184983,0.9223250941959701
1546.9288486326832,0.934387120717158
1562.39813711901,0.9201088012003587
1578.0221184902002,0.8605164617203519
1593.8023396751023,0.7860283749397898
1609.7403630718534,0.7045980854816404
1625.837766702572,0.6131664854543912
1642.0961443695978,0.5127751855451053
1658.5171058132937,0.3912281156668339
1675.1022768714267,0.24856417350116594
1691.8532996401411,0.07107159944379034
1708.7718326365425,-0.1253630913874448
1725.8595509629079,-0.347381426890913
1743.1181464725369,-0.598168153821335
1760.5493279372622,-0.8449550246646291
1778.154821216635,-1.0930834156540536
1795.9363694288013,-1.3045629671367083
1813.8957331230893,-1.4791057298501298
1832.03469045432,-1.626704530820756
1850.3550373588632,-1.754605516903191
1868.858587732452,-1.8752496194622936
1887.5471736097766,-2.030571087074726
1906.4226453458743,-2.2113981000405047
1925.4868717993331,-2.421568007863794
1944.7417405173264,-2.6679592183656564
1964.1891579224998,-2.9336409904945637
1983.831049501725,-3.2227020663254144
2003.6693599967423,-3.5275841221957096
2023.7060535967098,-3.823046782841966
2043.943114132677,-4.076003518424485
2064.382545274004,-4.26949764446552
2085.026370726744,-4.421104201551461
2105.8766344340115,-4.544535202079857
2126.935400778352,-4.666640603823156
2148.2047547861353,-4.831276332607048
2169.6868023339966,-5.02653060546754
2191.3836703573365,-5.229966892307856
2213.29750706091,-5.421203132016536
2235.430482131519,-5.60168751243346
2257.784786952834,-5.793992226812533
2280.3626348223625,-6.016139315074408
2303.166261170586,-6.268877455878913
2326.197923782292,-6.559445373195437
2349.459903020115,-6.845605808752288
2372.954502050316,-7.102841839532868
2396.6840470708194,-7.337116049087489
2420.6508875415275,-7.564802791151346
2444.8573964169427,-7.766850397926415
2469.3059703811123,-7.968914453649575
2493.9990300849236,-8.140949721822432
2518.939020385773,-8.269427882316366
2544.1284105896307,-8.358048792599376
2569.569694695527,-8.430303674670418
2595.265391642482,-8.486198413325905
2621.218045558907,-8.518844560262774
2647.430226014496,-8.536111788512237
2673.904528274641,-8.540480561606419
2700.6435735573873,-8.523908489034838
2727.6500092929614,-8.490766478126778
2754.926509385891,-8.438955017749656
2782.4757744797503,-8.377701027870607
2810.3005322245476,-8.341655615715698
2838.403537546793,-8.291302097351712
2866.787572922261,-8.204607643604524
2895.4554486514835,-8.078784649964147
2924.4100031379985,-7.935211292240328
2953.6541031693787,-7.7831878531548835
2983.1906442010727,-7.603516177303592
3013.0225506430834,-7.400568302857586
3043.152776149514,-7.180192613091707
3073.584303911009,-6.966627738755971
3104.320146950119,-6.736610652388897
3135.3633484196203,-6.481611661141146
3166.7169819038163,-6.196053941164435
3198.3841517228543,-5.891344215350069
3230.367993240083,-5.573614169160364
3262.6716731724837,-5.2225365383837214
3295.2983899042088,-4.856577509868015
3328.2513738032508,-4.498496913267646
3361.533887541283,-4.162858415679695
3395.149226416696,-3.8457714538748307
3429.100718680863,-3.5136210236156034
3463.3917258676715,-3.1873786548993586
3498.0256431263483,-2.8746971420855676
3533.005899557612,-2.568145080280439
3568.335958553188,-2.2696556261172836
3604.01931813872,-1.9645148982538594
3640.059511320107,-1.6626797455317837
3676.4601064333083,-1.3575467412092634
3713.2247074976412,-1.0754919894494226
3750.3569545726177,-0.8081100250777323
3787.860524118344,-0.5420170323554322
3825.7391293595274,-0.2995334096201041
