frequency,raw,error,smoothed,error_smoothed,equalization,parametric_eq,equalized_raw,equalized_smoothed,target
20.00,0.63,0.63,0.63,0.63,-0.63,0.61,-0.00,-0.00,0.00
20.20,0.58,0.58,0.58,0.58,-0.58,0.62,-0.00,-0.00,0.00
20.40,0.53,0.53,0.53,0.53,-0.53,0.63,0.00,0.00,0.00
20.61,0.49,0.49,0.49,0.49,-0.49,0.65,0.00,0.00,0.00
20.81,0.44,0.44,0.44,0.44,-0.44,0.66,0.00,0.00,0.00
21.02,0.39,0.39,0.39,0.39,-0.39,0.68,0.00,0.00,0.00
21.23,0.34,0.34,0.34,0.34,-0.34,0.69,0.00,0.00,0.00
21.44,0.29,0.29,0.29,0.29,-0.29,0.71,0.00,0.00,0.00
21.66,0.24,0.24,0.24,0.24,-0.24,0.72,0.00,0.00,0.00
21.87,0.19,0.19,0.19,0.19,-0.19,0.74,-0.00,-0.00,0.00
22.09,0.14,0.14,0.14,0.14,-0.14,0.76,-0.00,-0.00,0.00
22.31,0.09,0.09,0.09,0.09,-0.09,0.77,-0.00,-0.00,0.00
22.54,0.04,0.04,0.04,0.04,-0.04,0.79,-0.00,-0.00,0.00
22.76,-0.01,-0.01,-0.01,-0.01,0.01,0.81,-0.00,-0.00,0.00
22.99,-0.06,-0.06,-0.06,-0.06,0.06,0.83,0.00,0.00,0.00
23.22,-0.11,-0.11,-0.11,-0.11,0.11,0.85,0.00,0.00,0.00
23.45,-0.16,-0.16,-0.16,-0.16,0.16,0.87,0.00,0.00,0.00
23.69,-0.21,-0.21,-0.21,-0.21,0.21,0.89,0.00,0.00,0.00
23.92,-0.26,-0.26,-0.26,-0.26,0.26,0.91,-0.00,0.00,0.00
24.16,-0.31,-0.31,-0.31,-0.31,0.31,0.93,-0.00,-0.00,0.00
24.40,-0.37,-0.37,-0.37,-0.37,0.37,0.95,-0.00,-0.00,0.00
24.65,-0.42,-0.42,-0.42,-0.42,0.42,0.97,-0.00,-0.00,0.00
24.89,-0.47,-0.47,-0.47,-0.47,0.47,0.99,-0.00,-0.00,0.00
25.14,-0.53,-0.53,-0.53,-0.53,0.52,1.02,-0.00,-0.00,0.00
25.39,-0.58,-0.58,-0.58,-0.58,0.58,1.04,0.00,0.00,0.00
25.65,-0.63,-0.63,-0.63,-0.63,0.63,1.06,0.00,0.00,0.00
25.91,-0.68,-0.68,-0.69,-0.69,0.69,1.09,0.00,0.00,0.00
26.16,-0.74,-0.74,-0.74,-0.74,0.74,1.11,0.00,0.00,0.00
26.43,-0.80,-0.80,-0.80,-0.80,0.80,1.14,-0.00,-0.00,0.00
26.69,-0.85,-0.85,-0.85,-0.85,0.85,1.16,-0.00,-0.00,0.00
26.96,-0.91,-0.91,-0.91,-0.91,0.91,1.19,-0.00,-0.00,0.00
27.23,-0.96,-0.96,-0.96,-0.96,0.96,1.22,-0.00,-0.00,0.00
27.50,-1.02,-1.02,-1.02,-1.02,1.02,1.25,-0.00,-0.00,0.00
27.77,-1.08,-1.08,-1.08,-1.08,1.08,1.28,0.00,0.00,0.00
28.05,-1.13,-1.13,-1.13,-1.13,1.13,1.31,0.00,0.00,0.00
28.33,-1.19,-1.19,-1.19,-1.19,1.19,1.34,0.00,0.00,0.00
28.62,-1.25,-1.25,-1.25,-1.25,1.25,1.37,0.00,0.00,0.00
28.90,-1.31,-1.31,-1.31,-1.31,1.31,1.40,-0.00,-0.00,0.00
29.19,-1.37,-1.37,-1.37,-1.37,1.36,1.43,-0.00,-0.00,0.00
29.48,-1.42,-1.42,-1.42,-1.42,1.42,1.47,-0.00,-0.00,0.00
29.78,-1.48,-1.48,-1.48,-1.48,1.48,1.50,-0.00,-0.00,0.00
30.08,-1.54,-1.54,-1.54,-1.54,1.54,1.54,0.00,0.00,0.00
30.38,-1.60,-1.60,-1.60,-1.60,1.60,1.57,0.00,0.00,0.00
30.68,-1.66,-1.66,-1.66,-1.66,1.66,1.61,0.00,0.00,0.00
30.99,-1.72,-1.72,-1.72,-1.72,1.72,1.65,-0.00,0.00,0.00
31.30,-1.78,-1.78,-1.78,-1.78,1.78,1.69,-0.00,-0.00,0.00
31.61,-1.84,-1.84,-1.84,-1.84,1.84,1.73,-0.00,-0.00,0.00
31.93,-1.90,-1.90,-1.90,-1.90,1.90,1.77,-0.00,-0.00,0.00
32.24,-1.97,-1.97,-1.97,-1.97,1.97,1.81,-0.00,0.00,0.00
32.57,-2.03,-2.03,-2.03,-2.03,2.03,1.85,0.00,0.00,0.00
32.89,-2.09,-2.09,-2.09,-2.09,2.09,1.89,0.00,0.00,0.00
33.22,-2.15,-2.15,-2.15,-2.15,2.15,1.94,0.00,0.00,0.00
33.55,-2.22,-2.22,-2.21,-2.21,2.21,1.99,-0.00,-0.00,0.00
33.89,-2.28,-2.28,-2.28,-2.28,2.28,2.03,-0.00,-0.00,0.00
34.23,-2.34,-2.34,-2.34,-2.34,2.34,2.08,-0.00,-0.00,0.00
34.57,-2.40,-2.40,-2.40,-2.40,2.40,2.13,-0.00,-0.00,0.00
34.92,-2.47,-2.47,-2.47,-2.47,2.47,2.18,0.00,0.00,0.00
35.27,-2.53,-2.53,-2.53,-2.53,2.53,2.23,0.00,0.00,0.00
35.62,-2.60,-2.60,-2.60,-2.60,2.60,2.29,0.00,0.00,0.00
35.97,-2.66,-2.66,-2.66,-2.66,2.66,2.34,-0.00,-0.00,0.00
36.33,-2.73,-2.73,-2.73,-2.73,2.73,2.40,-0.00,-0.00,0.00
36.70,-2.79,-2.79,-2.79,-2.79,2.79,2.45,-0.00,-0.00,0.00
37.06,-2.86,-2.86,-2.86,-2.86,2.86,2.51,0.00,0.00,0.00
37.43,-2.92,-2.92,-2.92,-2.92,2.92,2.57,0.00,0.00,0.00
37.81,-2.99,-2.99,-2.99,-2.99,2.99,2.63,0.00,0.00,0.00
38.19,-3.05,-3.05,-3.05,-3.05,3.05,2.69,-0.00,-0.00,0.00
38.57,-3.12,-3.12,-3.12,-3.12,3.12,2.76,-0.00,-0.00,0.00
38.95,-3.19,-3.19,-3.19,-3.19,3.19,2.82,-0.00,-0.00,0.00
39.34,-3.25,-3.25,-3.25,-3.25,3.25,2.89,-0.00,0.00,0.00
39.74,-3.32,-3.32,-3.32,-3.32,3.32,2.96,0.00,0.00,0.00
40.14,-3.39,-3.39,-3.39,-3.39,3.39,3.03,0.00,0.00,0.00
40.54,-3.45,-3.45,-3.45,-3.45,3.45,3.10,-0.00,0.00,0.00
40.94,-3.52,-3.52,-3.52,-3.52,3.52,3.17,-0.00,-0.00,0.00
41.35,-3.59,-3.59,-3.59,-3.59,3.59,3.24,-0.00,-0.00,0.00
41.76,-3.66,-3.66,-3.66,-3.66,3.66,3.32,-0.00,0.00,0.00
42.18,-3.72,-3.72,-3.72,-3.72,3.72,3.39,0.00,0.00,0.00
42.60,-3.79,-3.79,-3.79,-3.79,3.79,3.47,0.00,0.00,0.00
43.03,-3.86,-3.86,-3.86,-3.86,3.86,3.55,-0.00,-0.00,0.00
43.46,-3.93,-3.93,-3.93,-3.93,3.93,3.63,-0.00,-0.00,0.00
43.90,-4.00,-4.00,-4.00,-4.00,4.00,3.71,-0.00,-0.00,0.00
44.33,-4.07,-4.07,-4.07,-4.07,4.07,3.80,0.00,0.00,0.00
44.78,-4.13,-4.13,-4.13,-4.13,4.13,3.88,0.00,0.00,0.00
45.23,-4.20,-4.20,-4.20,-4.20,4.20,3.96,0.00,0.00,0.00
45.68,-4.27,-4.27,-4.27,-4.27,4.27,4.05,-0.00,-0.00,0.00
46.13,-4.34,-4.34,-4.34,-4.34,4.34,4.14,-0.00,-0.00,0.00
46.60,-4.41,-4.41,-4.41,-4.41,4.41,4.23,-0.00,-0.00,0.00
47.06,-4.48,-4.48,-4.48,-4.48,4.48,4.31,0.00,0.00,0.00
47.53,-4.55,-4.55,-4.55,-4.55,4.55,4.40,0.00,0.00,0.00
48.01,-4.62,-4.62,-4.62,-4.62,4.62,4.50,0.00,0.00,0.00
48.49,-4.68,-4.68,-4.68,-4.68,4.68,4.59,-0.00,-0.00,0.00
48.97,-4.75,-4.75,-4.75,-4.75,4.75,4.68,-0.00,-0.00,0.00
49.46,-4.82,-4.82,-4.82,-4.82,4.82,4.77,-0.00,0.00,0.00
49.96,-4.89,-4.89,-4.89,-4.89,4.89,4.86,0.00,0.00,0.00
50.46,-4.96,-4.96,-4.96,-4.96,4.96,4.95,0.00,0.00,0.00
50.96,-5.03,-5.03,-5.03,-5.03,5.03,5.04,0.00,-0.00,0.00
51.47,-5.10,-5.10,-5.10,-5.10,5.10,5.13,-0.00,-0.00,0.00
51.99,-5.16,-5.16,-5.16,-5.16,5.16,5.23,-0.00,0.00,0.00
52.51,-5.23,-5.23,-5.23,-5.23,5.23,5.32,0.00,0.00,0.00
53.03,-5.30,-5.30,-5.30,-5.30,5.30,5.40,0.00,0.00,0.00
53.56,-5.37,-5.37,-5.37,-5.37,5.37,5.49,-0.00,-0.00,0.00
54.10,-5.44,-5.44,-5.44,-5.44,5.44,5.58,-0.00,-0.00,0.00
54.64,-5.50,-5.50,-5.50,-5.50,5.50,5.67,0.00,0.00,0.00
55.18,-5.57,-5.57,-5.57,-5.57,5.57,5.75,0.00,0.00,0.00
55.74,-5.64,-5.64,-5.64,-5.64,5.64,5.83,0.00,-0.00,0.00
56.29,-5.70,-5.70,-5.70,-5.70,5.70,5.91,-0.00,-0.00,0.00
56.86,-5.77,-5.77,-5.77,-5.77,5.77,5.99,0.00,0.00,0.00
57.42,-5.84,-5.84,-5.84,-5.84,5.84,6.07,0.00,0.00,0.00
58.00,-5.90,-5.90,-5.90,-5.90,5.90,6.14,0.00,0.00,0.00
58.58,-5.97,-5.97,-5.97,-5.97,5.97,6.21,-0.00,-0.00,0.00
59.16,-6.03,-6.03,-6.03,-6.03,6.03,6.28,0.00,0.00,0.00
59.76,-6.10,-6.10,-6.10,-6.10,6.10,6.35,0.00,-0.00,0.00
60.35,-6.16,-6.16,-6.16,-6.16,6.16,6.41,0.00,0.00,0.00
60.96,-6.22,-6.22,-6.22,-6.22,6.22,6.47,-0.00,-0.00,0.00
61.57,-6.29,-6.29,-6.29,-6.29,6.29,6.53,0.00,0.00,0.00
62.18,-6.35,-6.35,-6.35,-6.35,6.35,6.59,0.00,-0.00,0.00
62.80,-6.41,-6.41,-6.41,-6.41,6.41,6.64,-0.00,0.00,0.00
63.43,-6.47,-6.47,-6.47,-6.47,6.47,6.69,-0.00,0.00,0.00
64.07,-6.53,-6.53,-6.53,-6.53,6.53,6.74,0.00,-0.00,0.00
64.71,-6.59,-6.59,-6.59,-6.59,6.59,6.78,0.00,-0.00,0.00
65.35,-6.65,-6.65,-6.65,-6.65,6.65,6.83,-0.00,0.00,0.00
66.01,-6.71,-6.71,-6.71,-6.71,6.71,6.87,-0.00,0.00,0.00
66.67,-6.77,-6.77,-6.77,-6.77,6.77,6.91,0.00,-0.00,0.00
67.33,-6.83,-6.83,-6.83,-6.83,6.83,6.95,0.00,-0.00,0.00
68.01,-6.89,-6.89,-6.88,-6.88,6.88,6.98,-0.00,0.00,0.00
68.69,-6.94,-6.94,-6.94,-6.94,6.94,7.02,0.00,-0.00,0.00
69.37,-6.99,-6.99,-6.99,-6.99,6.99,7.05,0.00,-0.00,0.00
70.07,-7.05,-7.05,-7.05,-7.05,7.05,7.08,-0.00,0.00,0.00
70.77,-7.10,-7.10,-7.10,-7.10,7.10,7.12,-0.00,0.00,0.00
71.48,-7.15,-7.15,-7.15,-7.15,7.15,7.15,0.00,-0.00,0.00
72.19,-7.20,-7.20,-7.20,-7.20,7.20,7.18,-0.00,0.00,0.00
72.91,-7.26,-7.26,-7.25,-7.25,7.25,7.21,-0.00,0.00,0.00
73.64,-7.30,-7.30,-7.30,-7.30,7.30,7.24,0.00,-0.00,0.00
74.38,-7.35,-7.35,-7.35,-7.35,7.35,7.27,0.00,-0.00,0.00
75.12,-7.40,-7.40,-7.40,-7.40,7.40,7.30,-0.00,0.00,0.00
75.87,-7.44,-7.44,-7.44,-7.44,7.44,7.33,0.00,-0.00,0.00
76.63,-7.49,-7.49,-7.49,-7.49,7.49,7.36,0.00,-0.00,0.00
77.40,-7.53,-7.53,-7.53,-7.53,7.53,7.40,-0.00,0.00,0.00
78.17,-7.57,-7.57,-7.57,-7.57,7.57,7.43,0.00,-0.00,0.00
78.95,-7.61,-7.61,-7.61,-7.61,7.61,7.46,0.00,-0.00,0.00
79.74,-7.65,-7.65,-7.65,-7.65,7.65,7.50,-0.00,0.00,0.00
80.54,-7.69,-7.69,-7.69,-7.69,7.69,7.53,0.00,-0.00,0.00
81.35,-7.72,-7.72,-7.72,-7.72,7.72,7.57,0.00,-0.00,0.00
82.16,-7.76,-7.76,-7.76,-7.76,7.76,7.61,-0.00,0.00,0.00
82.98,-7.79,-7.79,-7.79,-7.79,7.79,7.64,0.00,-0.00,0.00
83.81,-7.82,-7.82,-7.82,-7.82,7.82,7.68,0.00,0.00,0.00
84.65,-7.85,-7.85,-7.85,-7.85,7.85,7.72,-0.00,0.00,0.00
85.50,-7.87,-7.87,-7.87,-7.87,7.87,7.76,0.00,-0.00,0.00
86.35,-7.90,-7.90,-7.90,-7.90,7.90,7.79,-0.00,0.00,0.00
87.22,-7.92,-7.92,-7.92,-7.92,7.92,7.83,0.00,0.00,0.00
88.09,-7.94,-7.94,-7.94,-7.94,7.94,7.87,0.00,-0.00,0.00
88.97,-7.96,-7.96,-7.96,-7.96,7.96,7.90,-0.00,0.00,0.00
89.86,-7.97,-7.97,-7.98,-7.98,7.98,7.93,0.00,-0.00,0.00
90.76,-7.99,-7.99,-7.99,-7.99,7.99,7.96,0.00,0.00,0.00
91.66,-8.00,-8.00,-8.00,-8.00,8.00,7.99,-0.00,0.00,0.00
92.58,-8.01,-8.01,-8.01,-8.01,8.01,8.02,0.00,-0.00,0.00
93.51,-8.02,-8.02,-8.02,-8.02,8.02,8.04,-0.00,0.00,0.00
94.44,-8.02,-8.02,-8.02,-8.02,8.02,8.06,0.00,-0.00,0.00
95.39,-8.02,-8.02,-8.02,-8.02,8.02,8.08,0.00,0.00,0.00
96.34,-8.02,-8.02,-8.02,-8.02,8.02,8.09,0.00,0.00,0.00
97.30,-8.02,-8.02,-8.02,-8.02,8.02,8.09,0.01,0.00,0.00
98.28,-8.01,-8.01,-8.01,-8.01,8.02,8.09,0.01,0.01,0.00
99.26,-8.00,-8.00,-8.00,-8.00,8.01,8.08,0.01,0.01,0.00
100.25,-7.99,-7.99,-7.99,-7.99,8.00,8.06,0.01,0.01,0.00
101.25,-7.98,-7.98,-7.98,-7.98,7.97,8.04,-0.00,-0.01,0.00
102.27,-7.96,-7.96,-7.96,-7.96,7.94,8.01,-0.02,-0.02,0.00
103.29,-7.93,-7.93,-7.92,-7.92,7.90,7.98,-0.03,-0.02,0.00
104.32,-7.85,-7.85,-7.86,-7.86,7.84,7.93,-0.01,-0.01,0.00
105.37,-7.78,-7.78,-7.78,-7.78,7.78,7.88,0.00,-0.00,0.00
106.42,-7.69,-7.69,-7.69,-7.69,7.70,7.81,0.01,0.01,0.00
107.48,-7.61,-7.61,-7.61,-7.61,7.62,7.74,0.01,0.01,0.00
108.56,-7.52,-7.52,-7.52,-7.52,7.53,7.67,0.01,0.01,0.00
109.64,-7.43,-7.43,-7.43,-7.43,7.43,7.58,0.00,0.00,0.00
110.74,-7.33,-7.33,-7.33,-7.33,7.33,7.49,0.00,0.00,0.00
111.85,-7.23,-7.23,-7.23,-7.23,7.23,7.38,-0.00,-0.00,0.00
112.97,-7.13,-7.13,-7.13,-7.13,7.13,7.28,-0.00,-0.00,0.00
114.10,-7.02,-7.02,-7.02,-7.02,7.02,7.16,-0.00,-0.00,0.00
115.24,-6.91,-6.91,-6.91,-6.91,6.91,7.04,-0.00,-0.00,0.00
116.39,-6.80,-6.80,-6.80,-6.80,6.80,6.91,0.00,0.00,0.00
117.55,-6.68,-6.68,-6.68,-6.68,6.68,6.77,-0.00,0.00,0.00
118.73,-6.56,-6.56,-6.56,-6.56,6.56,6.63,0.00,0.00,0.00
119.92,-6.44,-6.44,-6.44,-6.44,6.44,6.49,0.00,0.00,0.00
121.12,-6.31,-6.31,-6.31,-6.31,6.31,6.34,0.00,0.00,0.00
122.33,-6.18,-6.18,-6.18,-6.18,6.18,6.19,-0.00,-0.00,0.00
123.55,-6.04,-6.04,-6.04,-6.04,6.04,6.03,0.00,-0.00,0.00
124.79,-5.91,-5.91,-5.91,-5.91,5.91,5.87,-0.00,-0.00,0.00
126.03,-5.77,-5.77,-5.77,-5.77,5.77,5.71,-0.00,-0.00,0.00
127.29,-5.62,-5.62,-5.62,-5.62,5.62,5.55,0.00,-0.00,0.00
128.57,-5.47,-5.47,-5.47,-5.47,5.47,5.38,-0.00,-0.00,0.00
129.85,-5.32,-5.32,-5.32,-5.32,5.32,5.22,0.00,-0.00,0.00
131.15,-5.17,-5.17,-5.17,-5.17,5.17,5.05,-0.00,-0.00,0.00
132.46,-5.01,-5.01,-5.01,-5.01,5.01,4.88,0.00,-0.00,0.00
133.79,-4.85,-4.85,-4.85,-4.85,4.85,4.71,-0.00,-0.00,0.00
135.12,-4.68,-4.68,-4.68,-4.68,4.68,4.54,0.00,0.00,0.00
136.48,-4.51,-4.51,-4.51,-4.51,4.51,4.36,-0.00,0.00,0.00
137.84,-4.34,-4.34,-4.34,-4.34,4.34,4.19,-0.00,-0.00,0.00
139.22,-4.17,-4.17,-4.17,-4.17,4.17,4.02,-0.00,-0.00,0.00
140.61,-3.99,-3.99,-3.99,-3.99,3.99,3.85,-0.00,-0.00,0.00
142.02,-3.82,-3.82,-3.82,-3.82,3.82,3.67,-0.00,-0.00,0.00
143.44,-3.64,-3.64,-3.64,-3.64,3.64,3.50,-0.00,-0.00,0.00
144.87,-3.45,-3.45,-3.45,-3.45,3.45,3.33,-0.00,-0.00,0.00
146.32,-3.27,-3.27,-3.27,-3.27,3.27,3.16,0.00,0.00,0.00
147.78,-3.08,-3.08,-3.08,-3.08,3.08,2.99,0.00,0.00,0.00
149.26,-2.90,-2.90,-2.90,-2.90,2.90,2.81,0.00,-0.00,0.00
150.75,-2.71,-2.71,-2.71,-2.71,2.71,2.64,-0.00,-0.00,0.00
152.26,-2.52,-2.52,-2.52,-2.52,2.52,2.47,-0.00,-0.00,0.00
153.78,-2.34,-2.34,-2.34,-2.34,2.34,2.30,-0.00,-0.00,0.00
155.32,-2.15,-2.15,-2.15,-2.15,2.15,2.14,-0.00,-0.00,0.00
156.88,-1.96,-1.96,-1.96,-1.96,1.96,1.97,0.00,-0.00,0.00
158.44,-1.77,-1.77,-1.77,-1.77,1.77,1.80,-0.00,0.00,0.00
160.03,-1.59,-1.59,-1.59,-1.59,1.59,1.63,-0.00,-0.00,0.00
161.63,-1.41,-1.41,-1.41,-1.41,1.41,1.47,0.00,-0.00,0.00
163.24,-1.23,-1.23,-1.23,-1.23,1.22,1.30,-0.00,-0.00,0.00
164.88,-1.05,-1.05,-1.05,-1.05,1.05,1.14,-0.00,-0.00,0.00
166.53,-0.87,-0.87,-0.87,-0.87,0.87,0.98,0.00,-0.00,0.00
168.19,-0.70,-0.70,-0.70,-0.70,0.70,0.82,0.00,0.00,0.00
169.87,-0.53,-0.53,-0.53,-0.53,0.53,0.66,-0.00,0.00,0.00
171.57,-0.37,-0.37,-0.37,-0.37,0.37,0.51,0.00,0.00,0.00
173.29,-0.21,-0.21,-0.21,-0.21,0.21,0.36,0.00,0.00,0.00
175.02,-0.06,-0.06,-0.06,-0.06,0.06,0.21,0.00,0.00,0.00
176.77,0.09,0.09,0.09,0.09,-0.09,0.07,0.00,0.00,0.00
178.54,0.23,0.23,0.23,0.23,-0.23,-0.07,0.00,0.00,0.00
180.32,0.36,0.36,0.36,0.36,-0.36,-0.21,0.00,0.00,0.00
182.13,0.48,0.48,0.48,0.48,-0.48,-0.34,0.00,0.00,0.00
183.95,0.60,0.60,0.60,0.60,-0.60,-0.47,0.00,0.00,0.00
185.79,0.71,0.71,0.71,0.71,-0.70,-0.59,0.00,0.00,0.00
187.65,0.81,0.81,0.81,0.81,-0.80,-0.70,0.00,0.00,0.00
189.52,0.90,0.90,0.90,0.90,-0.90,-0.81,0.00,0.00,0.00
191.42,0.98,0.98,0.98,0.98,-0.98,-0.91,0.00,0.00,0.00
193.33,1.06,1.06,1.06,1.06,-1.06,-1.00,0.00,0.00,0.00
195.27,1.13,1.13,1.13,1.13,-1.13,-1.09,-0.00,-0.00,0.00
197.22,1.19,1.19,1.19,1.19,-1.19,-1.17,-0.00,-0.00,0.00
199.19,1.25,1.25,1.25,1.25,-1.25,-1.25,0.00,-0.00,0.00
201.18,1.30,1.30,1.30,1.30,-1.30,-1.31,-0.00,-0.00,0.00
203.19,1.35,1.35,1.35,1.35,-1.35,-1.37,-0.00,-0.00,0.00
205.23,1.40,1.40,1.40,1.40,-1.40,-1.43,-0.00,-0.00,0.00
207.28,1.44,1.44,1.44,1.44,-1.44,-1.48,-0.00,-0.00,0.00
209.35,1.48,1.48,1.48,1.48,-1.48,-1.52,0.00,-0.00,0.00
211.44,1.51,1.51,1.51,1.51,-1.51,-1.56,0.00,0.00,0.00
213.56,1.54,1.54,1.54,1.54,-1.54,-1.59,0.00,0.00,0.00
215.69,1.57,1.57,1.57,1.57,-1.57,-1.62,0.00,0.00,0.00
217.85,1.60,1.60,1.60,1.60,-1.60,-1.64,0.00,0.00,0.00
220.03,1.62,1.62,1.62,1.62,-1.62,-1.66,0.00,0.00,0.00
222.23,1.63,1.63,1.63,1.63,-1.63,-1.67,-0.00,0.00,0.00
224.45,1.65,1.65,1.65,1.65,-1.65,-1.69,-0.00,0.00,0.00
226.70,1.66,1.66,1.66,1.66,-1.66,-1.69,0.00,0.00,0.00
228.96,1.67,1.67,1.67,1.67,-1.67,-1.70,0.00,0.00,0.00
231.25,1.68,1.68,1.68,1.68,-1.68,-1.71,0.00,0.00,0.00
233.57,1.68,1.68,1.68,1.68,-1.68,-1.71,-0.00,0.00,0.00
235.90,1.68,1.68,1.69,1.69,-1.69,-1.71,-0.00,-0.00,0.00
238.26,1.69,1.69,1.69,1.69,-1.69,-1.71,-0.00,-0.00,0.00
240.64,1.69,1.69,1.69,1.69,-1.69,-1.71,-0.00,-0.00,0.00
243.05,1.69,1.69,1.69,1.69,-1.69,-1.70,-0.00,-0.00,0.00
245.48,1.68,1.68,1.68,1.68,-1.69,-1.70,-0.00,-0.00,0.00
247.93,1.68,1.68,1.68,1.68,-1.68,-1.69,-0.00,-0.00,0.00
250.41,1.68,1.68,1.68,1.68,-1.68,-1.69,-0.00,-0.00,0.00
252.92,1.67,1.67,1.67,1.67,-1.67,-1.68,-0.00,-0.00,0.00
255.45,1.67,1.67,1.67,1.67,-1.67,-1.67,0.00,0.00,0.00
258.00,1.66,1.66,1.66,1.66,-1.65,-1.66,0.00,0.00,0.00
260.58,1.64,1.64,1.64,1.64,-1.64,-1.65,0.00,0.00,0.00
263.19,1.63,1.63,1.63,1.63,-1.62,-1.63,0.00,0.00,0.00
265.82,1.60,1.60,1.60,1.60,-1.60,-1.62,0.00,0.00,0.00
268.48,1.58,1.58,1.58,1.58,-1.58,-1.61,0.00,0.00,0.00
271.16,1.55,1.55,1.55,1.55,-1.55,-1.59,0.00,0.00,0.00
273.87,1.53,1.53,1.53,1.53,-1.53,-1.58,0.00,0.00,0.00
276.61,1.50,1.50,1.50,1.50,-1.50,-1.56,0.00,0.00,0.00
279.38,1.47,1.47,1.47,1.47,-1.47,-1.54,-0.00,-0.00,0.00
282.17,1.44,1.44,1.45,1.45,-1.45,-1.53,-0.00,-0.00,0.00
284.99,1.42,1.42,1.42,1.42,-1.42,-1.51,-0.00,-0.00,0.00
287.84,1.40,1.40,1.40,1.40,-1.41,-1.49,-0.00,-0.00,0.00
290.72,1.39,1.39,1.39,1.39,-1.39,-1.47,-0.00,-0.00,0.00
293.63,1.38,1.38,1.38,1.38,-1.38,-1.45,-0.00,-0.00,0.00
296.57,1.37,1.37,1.37,1.37,-1.37,-1.43,-0.00,-0.00,0.00
299.53,1.37,1.37,1.37,1.37,-1.37,-1.41,-0.00,-0.00,0.00
302.53,1.37,1.37,1.37,1.37,-1.37,-1.40,-0.00,-0.00,0.00
305.55,1.38,1.38,1.38,1.38,-1.38,-1.38,-0.00,-0.00,0.00
308.61,1.38,1.38,1.38,1.38,-1.38,-1.36,-0.00,-0.00,0.00
311.69,1.39,1.39,1.39,1.39,-1.39,-1.34,0.00,0.00,0.00
314.81,1.40,1.40,1.40,1.40,-1.40,-1.32,0.00,0.00,0.00
317.96,1.41,1.41,1.41,1.41,-1.41,-1.31,0.00,0.00,0.00
321.14,1.42,1.42,1.42,1.42,-1.42,-1.29,0.00,0.00,0.00
324.35,1.42,1.42,1.42,1.42,-1.42,-1.27,0.00,0.00,0.00
327.59,1.43,1.43,1.43,1.43,-1.43,-1.26,0.00,0.00,0.00
330.87,1.43,1.43,1.43,1.43,-1.43,-1.25,0.00,0.00,0.00
334.18,1.43,1.43,1.43,1.43,-1.43,-1.23,0.00,0.00,0.00
337.52,1.43,1.43,1.43,1.43,-1.43,-1.22,0.00,0.00,0.00
340.90,1.43,1.43,1.43,1.43,-1.43,-1.21,-0.00,-0.00,0.00
344.30,1.43,1.43,1.43,1.43,-1.43,-1.20,-0.00,-0.00,0.00
347.75,1.43,1.43,1.43,1.43,-1.43,-1.19,-0.00,-0.00,0.00
351.23,1.43,1.43,1.43,1.43,-1.43,-1.18,-0.00,-0.00,0.00
354.74,1.43,1.43,1.43,1.43,-1.43,-1.17,-0.00,-0.00,0.00
358.28,1.43,1.43,1.43,1.43,-1.43,-1.16,-0.00,-0.00,0.00
361.87,1.43,1.43,1.43,1.43,-1.43,-1.16,-0.00,-0.00,0.00
365.49,1.43,1.43,1.43,1.43,-1.43,-1.15,-0.00,-0.00,0.00
369.14,1.43,1.43,1.43,1.43,-1.43,-1.15,0.00,0.00,0.00
372.83,1.43,1.43,1.42,1.42,-1.42,-1.15,0.00,0.00,0.00
376.56,1.42,1.42,1.42,1.42,-1.41,-1.14,0.00,0.00,0.00
380.33,1.40,1.40,1.40,1.40,-1.40,-1.14,0.00,0.00,0.00
384.13,1.39,1.39,1.38,1.38,-1.38,-1.14,0.00,0.00,0.00
387.97,1.36,1.36,1.36,1.36,-1.36,-1.14,0.00,0.00,0.00
391.85,1.33,1.33,1.33,1.33,-1.32,-1.15,0.00,0.00,0.00
395.77,1.29,1.29,1.29,1.29,-1.29,-1.15,0.00,-0.00,0.00
399.73,1.25,1.25,1.25,1.25,-1.25,-1.15,-0.00,-0.00,0.00
403.72,1.20,1.20,1.20,1.20,-1.20,-1.16,-0.00,0.00,0.00
407.76,1.15,1.15,1.15,1.15,-1.15,-1.17,0.00,0.00,0.00
411.84,1.09,1.09,1.09,1.09,-1.09,-1.17,0.00,0.00,0.00
415.96,1.03,1.03,1.03,1.03,-1.03,-1.18,0.00,0.00,0.00
420.12,0.97,0.97,0.97,0.97,-0.97,-1.19,0.00,0.00,0.00
424.32,0.90,0.90,0.90,0.90,-0.90,-1.20,0.00,0.00,0.00
428.56,0.84,0.84,0.84,0.84,-0.84,-1.21,-0.00,0.00,0.00
432.85,0.77,0.77,0.77,0.77,-0.77,-1.22,-0.00,-0.00,0.00
437.18,0.71,0.71,0.71,0.71,-0.71,-1.24,-0.00,-0.00,0.00
441.55,0.66,0.66,0.66,0.66,-0.66,-1.25,-0.00,-0.00,0.00
445.96,0.61,0.61,0.61,0.61,-0.61,-1.27,-0.00,-0.00,0.00
450.42,0.57,0.57,0.57,0.57,-0.57,-1.28,-0.00,-0.00,0.00
454.93,0.54,0.54,0.54,0.54,-0.54,-1.30,-0.00,-0.00,0.00
459.48,0.52,0.52,0.52,0.52,-0.52,-1.32,-0.00,-0.00,0.00
464.07,0.51,0.51,0.51,0.51,-0.51,-1.33,0.00,0.00,0.00
468.71,0.51,0.51,0.51,0.51,-0.51,-1.35,0.00,0.00,0.00
473.40,0.52,0.52,0.52,0.52,-0.52,-1.37,0.00,0.00,0.00
478.13,0.55,0.55,0.55,0.55,-0.55,-1.40,-0.00,-0.00,0.00
482.91,0.59,0.59,0.59,0.59,-0.59,-1.42,-0.00,-0.00,0.00
487.74,0.65,0.65,0.65,0.65,-0.65,-1.44,-0.00,-0.00,0.00
492.62,0.72,0.72,0.72,0.72,-0.73,-1.47,-0.01,-0.01,0.00
497.55,0.81,0.81,0.81,0.81,-0.82,-1.49,-0.01,-0.01,0.00
502.52,0.92,0.92,0.92,0.92,-0.93,-1.52,-0.01,-0.01,0.00
507.55,1.04,1.04,1.05,1.05,-1.06,-1.55,-0.01,-0.01,0.00
512.62,1.19,1.19,1.19,1.19,-1.20,-1.57,-0.01,-0.01,0.00
517.75,1.34,1.34,1.34,1.34,-1.34,-1.60,-0.00,-0.00,0.00
522.93,1.50,1.50,1.50,1.50,-1.49,-1.63,0.01,0.01,0.00
528.16,1.66,1.66,1.65,1.65,-1.64,-1.66,0.01,0.01,0.00
533.44,1.81,1.81,1.81,1.81,-1.79,-1.69,0.01,0.01,0.00
538.77,1.94,1.94,1.94,1.94,-1.94,-1.73,0.01,0.01,0.00
544.16,2.07,2.07,2.07,2.07,-2.07,-1.76,0.01,0.00,0.00
549.60,2.19,2.19,2.19,2.19,-2.19,-1.79,0.00,0.00,0.00
555.10,2.30,2.30,2.30,2.30,-2.30,-1.83,0.00,0.00,0.00
560.65,2.40,2.40,2.40,2.40,-2.40,-1.87,0.00,0.00,0.00
566.25,2.49,2.49,2.49,2.49,-2.48,-1.90,0.00,0.00,0.00
571.92,2.56,2.56,2.56,2.56,-2.56,-1.94,0.00,0.00,0.00
577.64,2.62,2.62,2.62,2.62,-2.62,-1.98,0.00,0.00,0.00
583.41,2.67,2.67,2.67,2.67,-2.67,-2.02,0.00,0.00,0.00
589.25,2.71,2.71,2.71,2.71,-2.71,-2.06,0.00,0.00,0.00
595.14,2.74,2.74,2.74,2.74,-2.74,-2.09,0.00,0.00,0.00
601.09,2.76,2.76,2.76,2.76,-2.76,-2.13,0.00,0.00,0.00
607.10,2.78,2.78,2.78,2.78,-2.78,-2.18,0.00,0.00,0.00
613.17,2.79,2.79,2.79,2.79,-2.79,-2.22,-0.00,-0.00,0.00
619.30,2.80,2.80,2.80,2.80,-2.81,-2.26,-0.01,-0.00,0.00
625.50,2.81,2.81,2.81,2.81,-2.82,-2.30,-0.01,-0.01,0.00
631.75,2.82,2.82,2.82,2.82,-2.83,-2.34,-0.01,-0.01,0.00
638.07,2.84,2.84,2.84,2.84,-2.85,-2.38,-0.01,-0.01,0.00
644.45,2.86,2.86,2.86,2.86,-2.87,-2.43,-0.01,-0.01,0.00
650.89,2.88,2.88,2.88,2.88,-2.88,-2.47,-0.01,-0.01,0.00
657.40,2.90,2.90,2.90,2.90,-2.90,-2.51,-0.01,-0.00,0.00
663.98,2.92,2.92,2.92,2.92,-2.92,-2.55,0.00,0.00,0.00
670.62,2.94,2.94,2.94,2.94,-2.93,-2.59,0.01,0.01,0.00
677.32,2.95,2.95,2.95,2.95,-2.94,-2.63,0.01,0.01,0.00
684.10,2.95,2.95,2.95,2.95,-2.94,-2.67,0.01,0.01,0.00
690.94,2.94,2.94,2.94,2.94,-2.93,-2.71,0.01,0.01,0.00
