frequency,raw,error,smoothed,error_smoothed,equalization,parametric_eq,equalized_raw,equalized_smoothed,target
20.00,2.35,2.39,2.35,2.39,-2.39,-2.45,-0.04,-0.04,-0.04
20.20,2.34,2.39,2.34,2.39,-2.39,-2.45,-0.05,-0.05,-0.05
20.40,2.33,2.40,2.33,2.40,-2.40,-2.45,-0.07,-0.07,-0.07
20.61,2.32,2.40,2.32,2.40,-2.40,-2.46,-0.08,-0.08,-0.08
20.81,2.31,2.41,2.31,2.41,-2.41,-2.46,-0.10,-0.10,-0.10
21.02,2.30,2.41,2.30,2.41,-2.41,-2.46,-0.11,-0.11,-0.11
21.23,2.28,2.42,2.28,2.41,-2.41,-2.46,-0.13,-0.13,-0.13
21.44,2.27,2.42,2.27,2.42,-2.42,-2.46,-0.14,-0.14,-0.14
21.66,2.26,2.42,2.26,2.42,-2.42,-2.46,-0.16,-0.16,-0.16
21.87,2.25,2.42,2.25,2.43,-2.43,-2.46,-0.18,-0.18,-0.17
22.09,2.24,2.43,2.24,2.43,-2.43,-2.45,-0.19,-0.19,-0.19
22.31,2.23,2.43,2.23,2.43,-2.43,-2.45,-0.20,-0.20,-0.20
22.54,2.22,2.43,2.22,2.43,-2.43,-2.45,-0.22,-0.22,-0.21
22.76,2.21,2.44,2.21,2.43,-2.43,-2.44,-0.22,-0.22,-0.23
22.99,2.20,2.44,2.20,2.43,-2.43,-2.44,-0.23,-0.23,-0.24
23.22,2.18,2.43,2.18,2.43,-2.42,-2.43,-0.24,-0.24,-0.24
23.45,2.17,2.41,2.17,2.41,-2.41,-2.43,-0.24,-0.24,-0.24
23.69,2.16,2.40,2.16,2.40,-2.40,-2.42,-0.24,-0.24,-0.24
23.92,2.15,2.39,2.15,2.39,-2.39,-2.41,-0.24,-0.24,-0.24
24.16,2.14,2.38,2.14,2.38,-2.38,-2.40,-0.25,-0.25,-0.24
24.40,2.12,2.38,2.12,2.37,-2.37,-2.39,-0.25,-0.25,-0.25
24.65,2.11,2.36,2.11,2.37,-2.37,-2.39,-0.26,-0.26,-0.25
24.89,2.10,2.36,2.10,2.36,-2.37,-2.38,-0.27,-0.27,-0.26
25.14,2.09,2.36,2.09,2.36,-2.36,-2.37,-0.28,-0.28,-0.27
25.39,2.07,2.36,2.08,2.36,-2.36,-2.36,-0.29,-0.29,-0.28
25.65,2.06,2.36,2.06,2.36,-2.36,-2.34,-0.30,-0.30,-0.30
25.91,2.05,2.36,2.05,2.36,-2.36,-2.33,-0.31,-0.31,-0.31
26.16,2.04,2.36,2.04,2.36,-2.35,-2.32,-0.31,-0.31,-0.32
26.43,2.02,2.34,2.02,2.34,-2.34,-2.31,-0.31,-0.31,-0.32
26.69,2.01,2.32,2.01,2.33,-2.32,-2.29,-0.31,-0.31,-0.31
26.96,2.00,2.31,2.00,2.31,-2.30,-2.28,-0.31,-0.31,-0.31
27.23,1.98,2.29,1.98,2.28,-2.28,-2.27,-0.30,-0.30,-0.30
27.50,1.97,2.25,1.97,2.26,-2.26,-2.25,-0.29,-0.29,-0.28
27.77,1.96,2.23,1.96,2.23,-2.23,-2.24,-0.28,-0.28,-0.27
28.05,1.94,2.21,1.94,2.20,-2.21,-2.22,-0.27,-0.27,-0.26
28.33,1.93,2.18,1.93,2.18,-2.19,-2.21,-0.26,-0.26,-0.25
28.62,1.92,2.17,1.92,2.16,-2.17,-2.19,-0.25,-0.25,-0.25
28.90,1.90,2.14,1.90,2.15,-2.15,-2.18,-0.25,-0.25,-0.24
29.19,1.89,2.13,1.89,2.13,-2.13,-2.16,-0.24,-0.24,-0.24
29.48,1.87,2.11,1.87,2.11,-2.12,-2.14,-0.24,-0.24,-0.24
29.78,1.86,2.10,1.86,2.10,-2.10,-2.13,-0.24,-0.24,-0.24
30.08,1.84,2.09,1.84,2.08,-2.08,-2.11,-0.24,-0.24,-0.24
30.38,1.83,2.06,1.83,2.07,-2.06,-2.09,-0.23,-0.23,-0.23
30.68,1.82,2.05,1.82,2.05,-2.04,-2.07,-0.22,-0.22,-0.23
30.99,1.80,2.02,1.80,2.02,-2.02,-2.06,-0.22,-0.21,-0.22
31.30,1.79,2.00,1.79,1.99,-1.99,-2.04,-0.20,-0.20,-0.21
31.61,1.77,1.96,1.77,1.96,-1.96,-2.02,-0.19,-0.19,-0.19
31.93,1.75,1.93,1.75,1.93,-1.93,-2.00,-0.18,-0.18,-0.17
32.24,1.74,1.90,1.74,1.90,-1.91,-1.98,-0.17,-0.17,-0.16
32.57,1.72,1.88,1.72,1.87,-1.88,-1.96,-0.16,-0.16,-0.15
32.89,1.71,1.85,1.71,1.85,-1.86,-1.94,-0.15,-0.15,-0.14
33.22,1.69,1.83,1.69,1.83,-1.84,-1.93,-0.14,-0.14,-0.14
33.55,1.68,1.82,1.68,1.82,-1.82,-1.91,-0.14,-0.14,-0.14
33.89,1.66,1.80,1.66,1.80,-1.80,-1.89,-0.14,-0.14,-0.14
34.23,1.64,1.79,1.64,1.79,-1.78,-1.87,-0.14,-0.14,-0.14
34.57,1.63,1.77,1.63,1.77,-1.77,-1.85,-0.14,-0.14,-0.14
34.92,1.61,1.75,1.61,1.75,-1.75,-1.83,-0.14,-0.14,-0.14
35.27,1.60,1.74,1.60,1.74,-1.74,-1.81,-0.14,-0.14,-0.14
35.62,1.58,1.72,1.58,1.72,-1.72,-1.79,-0.14,-0.14,-0.14
35.97,1.56,1.70,1.56,1.70,-1.70,-1.77,-0.14,-0.14,-0.14
36.33,1.54,1.69,1.54,1.69,-1.69,-1.75,-0.14,-0.14,-0.14
36.70,1.53,1.67,1.53,1.67,-1.67,-1.73,-0.14,-0.14,-0.14
37.06,1.51,1.65,1.51,1.65,-1.65,-1.72,-0.14,-0.14,-0.14
37.43,1.49,1.64,1.49,1.64,-1.63,-1.70,-0.14,-0.14,-0.14
37.81,1.48,1.62,1.48,1.62,-1.62,-1.68,-0.14,-0.14,-0.14
38.19,1.46,1.60,1.46,1.60,-1.60,-1.66,-0.14,-0.14,-0.14
38.57,1.44,1.58,1.44,1.58,-1.58,-1.64,-0.14,-0.14,-0.14
38.95,1.42,1.56,1.42,1.56,-1.56,-1.62,-0.14,-0.14,-0.14
39.34,1.40,1.55,1.40,1.55,-1.55,-1.60,-0.14,-0.14,-0.14
39.74,1.39,1.53,1.39,1.53,-1.53,-1.59,-0.14,-0.14,-0.14
40.14,1.37,1.51,1.37,1.51,-1.51,-1.57,-0.14,-0.14,-0.14
40.54,1.35,1.49,1.35,1.49,-1.49,-1.55,-0.14,-0.14,-0.14
40.94,1.33,1.47,1.33,1.47,-1.47,-1.53,-0.14,-0.14,-0.14
41.35,1.31,1.45,1.31,1.45,-1.45,-1.51,-0.14,-0.14,-0.14
41.76,1.29,1.43,1.29,1.43,-1.43,-1.50,-0.14,-0.14,-0.14
42.18,1.27,1.42,1.27,1.41,-1.41,-1.48,-0.14,-0.14,-0.14
42.60,1.25,1.40,1.25,1.39,-1.40,-1.46,-0.14,-0.14,-0.14
43.03,1.24,1.38,1.24,1.38,-1.39,-1.44,-0.15,-0.15,-0.14
43.46,1.22,1.37,1.22,1.37,-1.38,-1.43,-0.16,-0.16,-0.15
43.90,1.20,1.37,1.20,1.36,-1.37,-1.41,-0.17,-0.17,-0.17
44.33,1.18,1.36,1.18,1.36,-1.36,-1.39,-0.19,-0.19,-0.18
44.78,1.16,1.36,1.16,1.36,-1.36,-1.38,-0.20,-0.20,-0.20
45.23,1.14,1.36,1.14,1.35,-1.35,-1.36,-0.21,-0.21,-0.22
45.68,1.12,1.35,1.12,1.35,-1.34,-1.35,-0.22,-0.22,-0.23
46.13,1.10,1.34,1.10,1.33,-1.33,-1.33,-0.23,-0.23,-0.24
46.60,1.07,1.32,1.07,1.32,-1.31,-1.32,-0.24,-0.24,-0.24
47.06,1.05,1.30,1.05,1.30,-1.29,-1.30,-0.24,-0.24,-0.24
47.53,1.03,1.27,1.03,1.27,-1.28,-1.29,-0.24,-0.24,-0.24
48.01,1.01,1.25,1.01,1.25,-1.26,-1.27,-0.24,-0.24,-0.24
48.49,0.99,1.23,0.99,1.23,-1.24,-1.26,-0.25,-0.25,-0.24
48.97,0.97,1.21,0.97,1.21,-1.22,-1.24,-0.25,-0.25,-0.24
49.46,0.95,1.20,0.95,1.20,-1.20,-1.23,-0.26,-0.26,-0.25
49.96,0.93,1.19,0.93,1.19,-1.19,-1.22,-0.26,-0.26,-0.26
50.46,0.90,1.18,0.90,1.18,-1.18,-1.20,-0.28,-0.28,-0.27
50.96,0.88,1.17,0.88,1.17,-1.17,-1.19,-0.29,-0.29,-0.29
51.47,0.86,1.16,0.86,1.16,-1.16,-1.18,-0.30,-0.30,-0.30
51.99,0.84,1.15,0.84,1.15,-1.15,-1.16,-0.31,-0.31,-0.31
52.51,0.82,1.15,0.82,1.14,-1.14,-1.15,-0.32,-0.32,-0.33
53.03,0.79,1.13,0.79,1.13,-1.13,-1.14,-0.33,-0.33,-0.34
53.56,0.77,1.11,0.77,1.11,-1.11,-1.13,-0.34,-0.34,-0.34
54.10,0.75,1.09,0.75,1.09,-1.09,-1.12,-0.34,-0.34,-0.34
54.64,0.72,1.07,0.72,1.07,-1.07,-1.10,-0.34,-0.34,-0.34
55.18,0.70,1.04,0.70,1.04,-1.04,-1.09,-0.34,-0.34,-0.34
55.74,0.68,1.02,0.68,1.02,-1.02,-1.08,-0.34,-0.34,-0.34
56.29,0.65,1.00,0.65,0.99,-1.00,-1.07,-0.35,-0.35,-0.34
56.86,0.63,0.97,0.63,0.98,-0.98,-1.06,-0.35,-0.35,-0.34
57.42,0.61,0.96,0.61,0.96,-0.96,-1.05,-0.36,-0.36,-0.35
58.00,0.58,0.95,0.58,0.95,-0.95,-1.04,-0.37,-0.37,-0.37
58.58,0.56,0.94,0.56,0.94,-0.94,-1.03,-0.38,-0.38,-0.38
59.16,0.53,0.93,0.53,0.93,-0.93,-1.03,-0.39,-0.39,-0.39
59.76,0.51,0.92,0.51,0.92,-0.92,-1.02,-0.41,-0.41,-0.41
60.35,0.49,0.92,0.49,0.91,-0.91,-1.01,-0.43,-0.43,-0.43
60.96,0.46,0.90,0.46,0.91,-0.91,-1.00,-0.45,-0.45,-0.44
61.57,0.44,0.91,0.44,0.91,-0.91,-0.99,-0.47,-0.47,-0.47
62.18,0.41,0.91,0.41,0.91,-0.91,-0.99,-0.50,-0.50,-0.50
62.80,0.39,0.91,0.39,0.91,-0.91,-0.98,-0.52,-0.52,-0.52
63.43,0.36,0.91,0.36,0.91,-0.91,-0.97,-0.55,-0.55,-0.55
64.07,0.33,0.92,0.33,0.91,-0.92,-0.96,-0.58,-0.58,-0.58
64.71,0.31,0.92,0.31,0.92,-0.92,-0.96,-0.61,-0.61,-0.61
65.35,0.28,0.92,0.28,0.92,-0.92,-0.95,-0.64,-0.64,-0.64
66.01,0.26,0.93,0.26,0.93,-0.92,-0.95,-0.67,-0.67,-0.67
66.67,0.23,0.93,0.23,0.93,-0.93,-0.94,-0.70,-0.70,-0.70
67.33,0.20,0.93,0.20,0.93,-0.93,-0.94,-0.72,-0.72,-0.72
68.01,0.18,0.93,0.18,0.93,-0.93,-0.93,-0.75,-0.75,-0.75
68.69,0.15,0.93,0.15,0.93,-0.93,-0.93,-0.78,-0.78,-0.78
69.37,0.12,0.94,0.12,0.93,-0.94,-0.92,-0.81,-0.81,-0.81
70.07,0.10,0.93,0.10,0.94,-0.94,-0.92,-0.84,-0.84,-0.83
70.77,0.07,0.94,0.07,0.94,-0.94,-0.92,-0.87,-0.87,-0.87
71.48,0.04,0.94,0.04,0.94,-0.94,-0.91,-0.90,-0.90,-0.90
72.19,0.02,0.95,0.02,0.94,-0.94,-0.91,-0.92,-0.92,-0.93
72.91,-0.01,0.94,-0.01,0.94,-0.94,-0.91,-0.95,-0.95,-0.95
73.64,-0.04,0.94,-0.04,0.94,-0.94,-0.90,-0.98,-0.98,-0.98
74.38,-0.07,0.94,-0.07,0.94,-0.95,-0.90,-1.01,-1.01,-1.01
75.12,-0.09,0.95,-0.09,0.95,-0.95,-0.90,-1.05,-1.05,-1.04
75.87,-0.12,0.95,-0.12,0.95,-0.96,-0.90,-1.09,-1.09,-1.07
76.63,-0.15,0.97,-0.15,0.97,-0.97,-0.90,-1.13,-1.13,-1.12
77.40,-0.18,0.98,-0.18,0.98,-0.99,-0.90,-1.17,-1.17,-1.16
78.17,-0.21,1.00,-0.21,1.00,-1.00,-0.90,-1.21,-1.21,-1.21
78.95,-0.24,1.02,-0.24,1.02,-1.01,-0.90,-1.25,-1.25,-1.25
79.74,-0.27,1.03,-0.27,1.03,-1.02,-0.90,-1.29,-1.29,-1.29
80.54,-0.29,1.04,-0.29,1.04,-1.02,-0.90,-1.32,-1.32,-1.33
81.35,-0.32,1.04,-0.32,1.03,-1.02,-0.90,-1.35,-1.35,-1.36
82.16,-0.35,1.02,-0.35,1.02,-1.02,-0.90,-1.37,-1.37,-1.37
82.98,-0.38,1.00,-0.38,1.01,-1.00,-0.90,-1.39,-1.39,-1.38
83.81,-0.41,0.99,-0.41,0.99,-0.99,-0.90,-1.40,-1.40,-1.40
84.65,-0.44,0.97,-0.44,0.97,-0.98,-0.90,-1.42,-1.42,-1.41
85.50,-0.47,0.95,-0.47,0.96,-0.96,-0.90,-1.43,-1.43,-1.42
86.35,-0.50,0.94,-0.50,0.94,-0.95,-0.91,-1.45,-1.45,-1.44
87.22,-0.53,0.94,-0.53,0.94,-0.94,-0.91,-1.47,-1.47,-1.47
88.09,-0.56,0.93,-0.56,0.93,-0.93,-0.91,-1.49,-1.49,-1.49
88.97,-0.59,0.93,-0.59,0.93,-0.93,-0.91,-1.52,-1.52,-1.52
89.86,-0.62,0.93,-0.62,0.93,-0.93,-0.92,-1.55,-1.55,-1.55
90.76,-0.65,0.93,-0.65,0.93,-0.93,-0.92,-1.58,-1.58,-1.58
91.66,-0.68,0.93,-0.68,0.93,-0.93,-0.92,-1.61,-1.61,-1.61
92.58,-0.71,0.93,-0.71,0.93,-0.94,-0.93,-1.65,-1.65,-1.64
93.51,-0.74,0.94,-0.74,0.94,-0.94,-0.93,-1.68,-1.68,-1.68
94.44,-0.77,0.95,-0.77,0.95,-0.95,-0.94,-1.72,-1.72,-1.72
95.39,-0.80,0.96,-0.80,0.96,-0.96,-0.94,-1.76,-1.76,-1.76
96.34,-0.83,0.97,-0.83,0.97,-0.97,-0.95,-1.81,-1.81,-1.80
97.30,-0.86,0.99,-0.86,0.99,-0.98,-0.95,-1.85,-1.85,-1.85
98.28,-0.89,1.00,-0.89,1.00,-0.99,-0.96,-1.89,-1.89,-1.89
99.26,-0.92,1.01,-0.92,1.01,-1.00,-0.96,-1.93,-1.93,-1.93
100.25,-0.96,1.02,-0.96,1.01,-1.01,-0.97,-1.96,-1.96,-1.97
101.25,-0.99,1.02,-0.99,1.01,-1.01,-0.98,-2.00,-2.00,-2.00
102.27,-1.02,1.00,-1.02,1.01,-1.01,-0.98,-2.03,-2.03,-2.02
103.29,-1.05,1.00,-1.05,1.01,-1.01,-0.99,-2.06,-2.06,-2.05
104.32,-1.08,1.01,-1.08,1.00,-1.01,-1.00,-2.08,-2.08,-2.08
105.37,-1.10,1.01,-1.11,1.00,-1.00,-1.00,-2.11,-2.11,-2.11
106.42,-1.13,1.00,-1.13,1.00,-1.00,-1.01,-2.14,-2.14,-2.13
107.48,-1.16,1.00,-1.16,1.00,-1.00,-1.02,-2.16,-2.16,-2.16
108.56,-1.20,1.00,-1.20,1.00,-0.99,-1.02,-2.19,-2.19,-2.19
109.64,-1.23,1.00,-1.23,1.00,-0.99,-1.03,-2.22,-2.22,-2.22
110.74,-1.26,0.99,-1.26,1.00,-0.99,-1.04,-2.25,-2.25,-2.25
111.85,-1.29,0.99,-1.29,0.99,-0.99,-1.05,-2.28,-2.28,-2.28
112.97,-1.32,0.99,-1.32,0.99,-0.99,-1.05,-2.31,-2.31,-2.31
114.10,-1.35,0.98,-1.35,0.99,-1.00,-1.06,-2.35,-2.35,-2.33
115.24,-1.38,0.99,-1.38,0.99,-1.00,-1.07,-2.38,-2.38,-2.37
116.39,-1.41,1.01,-1.41,1.00,-1.01,-1.08,-2.42,-2.42,-2.42
117.55,-1.44,1.02,-1.44,1.02,-1.02,-1.08,-2.46,-2.46,-2.46
118.73,-1.47,1.03,-1.47,1.03,-1.03,-1.09,-2.50,-2.50,-2.50
119.92,-1.50,1.05,-1.50,1.04,-1.04,-1.10,-2.54,-2.54,-2.55
121.12,-1.53,1.05,-1.53,1.06,-1.05,-1.11,-2.59,-2.59,-2.58
122.33,-1.56,1.07,-1.56,1.07,-1.07,-1.11,-2.63,-2.63,-2.63
123.55,-1.59,1.08,-1.59,1.08,-1.08,-1.12,-2.68,-2.68,-2.67
124.79,-1.62,1.09,-1.62,1.09,-1.10,-1.13,-2.72,-2.72,-2.71
126.03,-1.65,1.11,-1.65,1.11,-1.11,-1.14,-2.76,-2.76,-2.76
127.29,-1.68,1.13,-1.68,1.13,-1.12,-1.14,-2.80,-2.80,-2.81
128.57,-1.71,1.14,-1.71,1.14,-1.13,-1.15,-2.85,-2.85,-2.85
129.85,-1.74,1.15,-1.74,1.15,-1.14,-1.16,-2.89,-2.89,-2.89
131.15,-1.77,1.15,-1.77,1.15,-1.15,-1.16,-2.92,-2.92,-2.92
132.46,-1.80,1.16,-1.80,1.16,-1.16,-1.17,-2.96,-2.96,-2.96
133.79,-1.83,1.16,-1.83,1.16,-1.16,-1.17,-2.99,-2.99,-2.99
135.12,-1.86,1.16,-1.86,1.16,-1.16,-1.18,-3.02,-3.02,-3.02
136.48,-1.89,1.16,-1.89,1.16,-1.16,-1.18,-3.05,-3.05,-3.05
137.84,-1.92,1.16,-1.92,1.16,-1.16,-1.19,-3.08,-3.08,-3.08
139.22,-1.95,1.15,-1.95,1.15,-1.16,-1.19,-3.11,-3.11,-3.10
140.61,-1.98,1.15,-1.98,1.15,-1.16,-1.19,-3.13,-3.13,-3.13
142.02,-2.01,1.15,-2.01,1.15,-1.16,-1.20,-3.16,-3.16,-3.16
143.44,-2.04,1.15,-2.04,1.15,-1.16,-1.20,-3.19,-3.19,-3.19
144.87,-2.07,1.16,-2.07,1.16,-1.16,-1.20,-3.22,-3.22,-3.22
146.32,-2.09,1.16,-2.09,1.16,-1.16,-1.20,-3.25,-3.25,-3.25
147.78,-2.12,1.16,-2.12,1.16,-1.16,-1.20,-3.28,-3.28,-3.28
149.26,-2.15,1.16,-2.15,1.16,-1.15,-1.20,-3.31,-3.31,-3.31
150.75,-2.18,1.16,-2.18,1.16,-1.15,-1.20,-3.33,-3.33,-3.34
152.26,-2.21,1.14,-2.21,1.15,-1.14,-1.20,-3.35,-3.35,-3.35
153.78,-2.24,1.13,-2.24,1.13,-1.13,-1.20,-3.37,-3.37,-3.37
155.32,-2.27,1.11,-2.27,1.12,-1.12,-1.20,-3.38,-3.38,-3.38
156.88,-2.30,1.11,-2.30,1.10,-1.10,-1.19,-3.40,-3.40,-3.40
158.44,-2.32,1.09,-2.32,1.09,-1.09,-1.19,-3.41,-3.41,-3.41
160.03,-2.35,1.07,-2.35,1.07,-1.08,-1.18,-3.43,-3.43,-3.42
161.63,-2.38,1.06,-2.38,1.06,-1.07,-1.18,-3.45,-3.45,-3.44
163.24,-2.41,1.05,-2.41,1.06,-1.06,-1.17,-3.47,-3.47,-3.46
164.88,-2.43,1.06,-2.43,1.06,-1.06,-1.16,-3.49,-3.49,-3.49
166.53,-2.46,1.06,-2.46,1.06,-1.06,-1.16,-3.52,-3.52,-3.52
168.19,-2.49,1.06,-2.49,1.06,-1.06,-1.15,-3.55,-3.55,-3.55
169.87,-2.51,1.07,-2.51,1.06,-1.06,-1.14,-3.57,-3.57,-3.58
171.57,-2.54,1.06,-2.54,1.06,-1.06,-1.13,-3.60,-3.60,-3.60
173.29,-2.57,1.06,-2.57,1.07,-1.07,-1.12,-3.63,-3.63,-3.63
175.02,-2.59,1.07,-2.59,1.07,-1.07,-1.10,-3.66,-3.66,-3.66
176.77,-2.62,1.07,-2.62,1.07,-1.07,-1.09,-3.69,-3.69,-3.69
178.54,-2.64,1.08,-2.64,1.08,-1.08,-1.08,-3.72,-3.72,-3.72
180.32,-2.67,1.08,-2.67,1.08,-1.08,-1.06,-3.75,-3.75,-3.75
182.13,-2.70,1.09,-2.70,1.08,-1.09,-1.05,-3.78,-3.78,-3.78
183.95,-2.72,1.08,-2.72,1.09,-1.09,-1.03,-3.81,-3.81,-3.80
185.79,-2.74,1.10,-2.75,1.09,-1.09,-1.02,-3.83,-3.83,-3.84
187.65,-2.77,1.09,-2.77,1.09,-1.08,-1.00,-3.85,-3.85,-3.86
189.52,-2.79,1.08,-2.79,1.08,-1.08,-0.98,-3.87,-3.87,-3.87
191.42,-2.82,1.06,-2.82,1.07,-1.07,-0.96,-3.89,-3.89,-3.88
193.33,-2.84,1.06,-2.84,1.06,-1.06,-0.94,-3.90,-3.90,-3.90
195.27,-2.87,1.04,-2.87,1.05,-1.05,-0.92,-3.91,-3.91,-3.91
197.22,-2.89,1.03,-2.89,1.03,-1.03,-0.90,-3.92,-3.92,-3.92
199.19,-2.92,1.02,-2.92,1.01,-1.01,-0.88,-3.93,-3.93,-3.94
201.18,-2.95,0.99,-2.95,0.99,-0.99,-0.86,-3.94,-3.94,-3.94
203.19,-2.98,0.96,-2.98,0.96,-0.96,-0.83,-3.94,-3.94,-3.94
205.23,-3.01,0.93,-3.01,0.94,-0.94,-0.81,-3.94,-3.94,-3.94
207.28,-3.03,0.91,-3.03,0.91,-0.91,-0.79,-3.94,-3.94,-3.94
209.35,-3.06,0.88,-3.06,0.88,-0.88,-0.76,-3.94,-3.94,-3.94
211.44,-3.09,0.85,-3.09,0.85,-0.85,-0.74,-3.94,-3.94,-3.94
213.56,-3.11,0.83,-3.11,0.83,-0.83,-0.71,-3.94,-3.94,-3.94
215.69,-3.14,0.80,-3.14,0.80,-0.80,-0.69,-3.94,-3.94,-3.94
217.85,-3.17,0.77,-3.17,0.77,-0.77,-0.66,-3.94,-3.94,-3.94
220.03,-3.20,0.75,-3.19,0.75,-0.75,-0.64,-3.94,-3.94,-3.94
222.23,-3.22,0.72,-3.22,0.72,-0.72,-0.61,-3.94,-3.94,-3.94
224.45,-3.24,0.70,-3.25,0.70,-0.70,-0.58,-3.94,-3.94,-3.94
226.70,-3.27,0.67,-3.27,0.67,-0.67,-0.56,-3.94,-3.94,-3.94
228.96,-3.30,0.64,-3.30,0.64,-0.64,-0.53,-3.94,-3.94,-3.94
231.25,-3.32,0.62,-3.32,0.62,-0.62,-0.50,-3.94,-3.94,-3.94
233.57,-3.35,0.59,-3.35,0.59,-0.59,-0.47,-3.94,-3.94,-3.94
235.90,-3.38,0.57,-3.38,0.57,-0.57,-0.45,-3.95,-3.95,-3.94
238.26,-3.40,0.54,-3.40,0.54,-0.54,-0.42,-3.95,-3.95,-3.94
240.64,-3.42,0.52,-3.42,0.52,-0.52,-0.39,-3.94,-3.94,-3.94
243.05,-3.45,0.49,-3.45,0.50,-0.49,-0.36,-3.94,-3.94,-3.94
245.48,-3.47,0.47,-3.47,0.47,-0.46,-0.33,-3.94,-3.94,-3.94
247.93,-3.50,0.44,-3.50,0.44,-0.43,-0.31,-3.93,-3.93,-3.94
250.41,-3.52,0.40,-3.52,0.40,-0.40,-0.28,-3.92,-3.92,-3.92
252.92,-3.55,0.36,-3.55,0.36,-0.37,-0.25,-3.91,-3.91,-3.91
255.45,-3.57,0.32,-3.57,0.32,-0.33,-0.22,-3.90,-3.90,-3.89
258.00,-3.60,0.28,-3.60,0.28,-0.28,-0.19,-3.88,-3.88,-3.88
260.58,-3.63,0.24,-3.63,0.24,-0.24,-0.17,-3.86,-3.86,-3.86
263.19,-3.66,0.20,-3.65,0.19,-0.19,-0.14,-3.85,-3.84,-3.85
265.82,-3.68,0.15,-3.68,0.14,-0.14,-0.11,-3.82,-3.82,-3.83
268.48,-3.71,0.09,-3.71,0.09,-0.09,-0.08,-3.80,-3.80,-3.80
271.16,-3.74,0.03,-3.74,0.03,-0.04,-0.05,-3.77,-3.77,-3.77
273.87,-3.76,-0.02,-3.76,-0.02,0.02,-0.03,-3.74,-3.74,-3.74
276.61,-3.79,-0.07,-3.79,-0.07,0.07,-0.00,-3.72,-3.72,-3.71
279.38,-3.81,-0.12,-3.81,-0.12,0.12,0.03,-3.69,-3.69,-3.69
282.17,-3.83,-0.17,-3.83,-0.17,0.17,0.05,-3.67,-3.67,-3.66
284.99,-3.86,-0.22,-3.86,-0.22,0.21,0.08,-3.65,-3.65,-3.64
287.84,-3.88,-0.26,-3.88,-0.26,0.25,0.11,-3.63,-3.63,-3.62
290.72,-3.90,-0.29,-3.90,-0.29,0.29,0.13,-3.61,-3.61,-3.61
293.63,-3.92,-0.32,-3.92,-0.32,0.32,0.16,-3.59,-3.59,-3.59
296.57,-3.93,-0.35,-3.93,-0.35,0.35,0.18,-3.58,-3.58,-3.58
299.53,-3.94,-0.38,-3.94,-0.38,0.38,0.21,-3.56,-3.56,-3.56
302.53,-3.95,-0.40,-3.95,-0.40,0.40,0.23,-3.55,-3.55,-3.55
305.55,-3.96,-0.43,-3.96,-0.43,0.43,0.26,-3.54,-3.54,-3.53
308.61,-3.97,-0.45,-3.97,-0.45,0.45,0.28,-3.52,-3.52,-3.52
311.69,-3.98,-0.47,-3.98,-0.47,0.47,0.31,-3.51,-3.51,-3.51
314.81,-3.98,-0.48,-3.98,-0.49,0.49,0.33,-3.49,-3.49,-3.50
317.96,-3.99,-0.51,-3.99,-0.51,0.51,0.35,-3.48,-3.48,-3.48
321.14,-3.99,-0.53,-3.99,-0.53,0.53,0.38,-3.47,-3.47,-3.46
324.35,-3.99,-0.54,-3.99,-0.55,0.54,0.40,-3.45,-3.45,-3.45
327.59,-4.00,-0.56,-4.00,-0.56,0.56,0.42,-3.44,-3.44,-3.43
330.87,-4.00,-0.58,-4.00,-0.58,0.57,0.45,-3.42,-3.42,-3.42
334.18,-4.00,-0.59,-4.00,-0.59,0.59,0.47,-3.41,-3.41,-3.41
337.52,-4.00,-0.61,-4.00,-0.60,0.60,0.49,-3.39,-3.40,-3.39
340.90,-4.00,-0.62,-4.00,-0.62,0.62,0.51,-3.38,-3.38,-3.38
344.30,-4.00,-0.63,-4.00,-0.63,0.63,0.53,-3.36,-3.36,-3.36
347.75,-4.00,-0.64,-4.00,-0.65,0.65,0.55,-3.34,-3.34,-3.35
351.23,-4.00,-0.66,-4.00,-0.67,0.67,0.57,-3.32,-3.32,-3.33
354.74,-4.00,-0.69,-4.00,-0.69,0.70,0.59,-3.30,-3.30,-3.30
358.28,-4.00,-0.73,-4.00,-0.72,0.72,0.61,-3.27,-3.27,-3.27
361.87,-4.00,-0.75,-4.00,-0.75,0.75,0.63,-3.25,-3.25,-3.25
365.49,-4.00,-0.77,-4.00,-0.78,0.77,0.65,-3.22,-3.22,-3.22
369.14,-3.99,-0.80,-3.99,-0.80,0.79,0.67,-3.20,-3.20,-3.19
372.83,-3.98,-0.82,-3.98,-0.82,0.81,0.69,-3.17,-3.17,-3.16
376.56,-3.97,-0.83,-3.97,-0.83,0.83,0.70,-3.15,-3.15,-3.14
380.33,-3.96,-0.84,-3.96,-0.84,0.84,0.72,-3.13,-3.13,-3.12
384.13,-3.95,-0.84,-3.95,-0.84,0.84,0.74,-3.11,-3.11,-3.11
387.97,-3.94,-0.84,-3.94,-0.84,0.85,0.76,-3.09,-3.09,-3.10
391.85,-3.93,-0.85,-3.93,-0.85,0.85,0.77,-3.08,-3.08,-3.08
395.77,-3.92,-0.85,-3.92,-0.85,0.86,0.79,-3.07,-3.07,-3.07
399.73,-3.91,-0.86,-3.92,-0.86,0.86,0.81,-3.05,-3.05,-3.05
403.72,-3.91,-0.87,-3.91,-0.87,0.87,0.82,-3.04,-3.04,-3.04
407.76,-3.90,-0.88,-3.90,-0.88,0.88,0.84,-3.02,-3.02,-3.02
411.84,-3.90,-0.89,-3.90,-0.89,0.90,0.85,-3.01,-3.01,-3.01
415.96,-3.90,-0.91,-3.90,-0.91,0.91,0.87,-2.99,-2.99,-2.99
420.12,-3.90,-0.92,-3.90,-0.92,0.92,0.88,-2.98,-2.98,-2.98
424.32,-3.90,-0.94,-3.90,-0.93,0.93,0.89,-2.97,-2.97,-2.96
428.56,-3.89,-0.94,-3.89,-0.94,0.94,0.91,-2.95,-2.95,-2.95
432.85,-3.88,-0.94,-3.88,-0.94,0.94,0.92,-2.94,-2.94,-2.94
437.18,-3.87,-0.95,-3.87,-0.94,0.94,0.93,-2.93,-2.93,-2.92
441.55,-3.85,-0.94,-3.85,-0.94,0.94,0.95,-2.91,-2.91,-2.91
445.96,-3.83,-0.94,-3.83,-0.93,0.93,0.96,-2.90,-2.90,-2.89
450.42,-3.80,-0.91,-3.80,-0.92,0.91,0.97,-2.88,-2.88,-2.88
454.93,-3.76,-0.90,-3.76,-0.90,0.90,0.98,-2.86,-2.86,-2.86
459.48,-3.72,-0.87,-3.73,-0.88,0.88,0.99,-2.85,-2.85,-2.85
464.07,-3.69,-0.86,-3.69,-0.86,0.86,1.00,-2.83,-2.83,-2.83
468.71,-3.66,-0.84,-3.66,-0.84,0.84,1.01,-2.82,-2.82,-2.82
473.40,-3.63,-0.81,-3.63,-0.82,0.82,1.02,-2.81,-2.81,-2.81
478.13,-3.60,-0.80,-3.60,-0.80,0.80,1.03,-2.79,-2.79,-2.79
482.91,-3.57,-0.79,-3.57,-0.79,0.79,1.04,-2.78,-2.78,-2.78
487.74,-3.55,-0.78,-3.55,-0.78,0.79,1.05,-2.76,-2.76,-2.77
492.62,-3.53,-0.78,-3.53,-0.78,0.79,1.06,-2.74,-2.74,-2.75
497.55,-3.52,-0.79,-3.52,-0.79,0.79,1.07,-2.72,-2.72,-2.73
502.52,-3.51,-0.81,-3.51,-0.80,0.81,1.08,-2.70,-2.70,-2.70
507.55,-3.50,-0.82,-3.50,-0.82,0.83,1.09,-2.67,-2.68,-2.68
512.62,-3.50,-0.85,-3.50,-0.85,0.85,1.10,-2.65,-2.65,-2.65
517.75,-3.50,-0.87,-3.50,-0.87,0.87,1.10,-2.62,-2.62,-2.62
522.93,-3.49,-0.90,-3.49,-0.90,0.90,1.11,-2.60,-2.60,-2.59
528.16,-3.49,-0.93,-3.49,-0.93,0.92,1.12,-2.57,-2.57,-2.56
533.44,-3.49,-0.95,-3.49,-0.95,0.94,1.13,-2.55,-2.55,-2.54
538.77,-3.49,-0.97,-3.49,-0.97,0.97,1.13,-2.52,-2.52,-2.52
544.16,-3.49,-0.98,-3.49,-0.98,0.99,1.14,-2.50,-2.50,-2.51
549.60,-3.49,-1.00,-3.49,-1.00,1.01,1.15,-2.49,-2.49,-2.49
555.10,-3.50,-1.02,-3.50,-1.02,1.03,1.15,-2.48,-2.48,-2.48
560.65,-3.51,-1.05,-3.51,-1.04,1.04,1.16,-2.46,-2.46,-2.46
566.25,-3.51,-1.06,-3.51,-1.06,1.06,1.16,-2.45,-2.45,-2.45
571.92,-3.51,-1.07,-3.51,-1.07,1.07,1.17,-2.44,-2.44,-2.44
577.64,-3.50,-1.08,-3.50,-1.08,1.08,1.17,-2.43,-2.43,-2.42
583.41,-3.49,-1.08,-3.49,-1.08,1.08,1.18,-2.42,-2.42,-2.41
589.25,-3.48,-1.07,-3.47,-1.08,1.07,1.18,-2.41,-2.40,-2.40
595.14,-3.45,-1.07,-3.45,-1.07,1.06,1.18,-2.39,-2.39,-2.38
601.09,-3.41,-1.05,-3.41,-1.05,1.04,1.19,-2.37,-2.37,-2.36
607.10,-3.37,-1.02,-3.37,-1.02,1.02,1.19,-2.36,-2.35,-2.35
